    Depth        Gy       GyE       RBE        SL     Gy^-1     Gy^-2 LETm(keV/um)
     0.00     1.962     2.368     1.207     0.327     0.431     0.070       18.416
     0.01     1.963     2.369     1.207     0.327     0.431     0.070       18.429
     0.02     1.964     2.371     1.207     0.327     0.431     0.070       18.442
     0.03     1.965     2.373     1.208     0.326     0.432     0.070       18.455
     0.04     1.966     2.375     1.208     0.326     0.432     0.070       18.468
     0.05     1.967     2.377     1.208     0.326     0.432     0.070       18.481
     0.06     1.968     2.378     1.209     0.325     0.432     0.070       18.494
     0.07     1.969     2.380     1.209     0.325     0.432     0.070       18.508
     0.08     1.970     2.382     1.209     0.325     0.432     0.070       18.521
     0.09     1.971     2.384     1.210     0.324     0.433     0.070       18.534
     0.10     1.972     2.386     1.210     0.324     0.433     0.070       18.548
     0.11     1.973     2.388     1.210     0.323     0.433     0.071       18.561
     0.12     1.974     2.390     1.211     0.323     0.433     0.071       18.575
     0.13     1.975     2.392     1.211     0.323     0.433     0.071       18.588
     0.14     1.976     2.394     1.211     0.322     0.434     0.071       18.602
     0.15     1.977     2.395     1.212     0.322     0.434     0.071       18.616
     0.16     1.978     2.397     1.212     0.322     0.434     0.071       18.629
     0.17     1.979     2.399     1.212     0.321     0.434     0.071       18.643
     0.18     1.980     2.401     1.213     0.321     0.434     0.071       18.657
     0.19     1.981     2.403     1.213     0.320     0.434     0.071       18.671
     0.20     1.983     2.405     1.213     0.320     0.435     0.071       18.685
     0.21     1.984     2.407     1.214     0.320     0.435     0.071       18.699
     0.22     1.985     2.409     1.214     0.319     0.435     0.071       18.713
     0.23     1.986     2.411     1.214     0.319     0.435     0.071       18.728
     0.24     1.987     2.413     1.215     0.318     0.435     0.071       18.742
     0.25     1.988     2.415     1.215     0.318     0.436     0.071       18.756
     0.26     1.989     2.417     1.215     0.318     0.436     0.071       18.771
     0.27     1.990     2.419     1.216     0.317     0.436     0.071       18.785
     0.28     1.991     2.421     1.216     0.317     0.436     0.071       18.799
     0.29     1.992     2.423     1.216     0.316     0.436     0.071       18.814
     0.30     1.993     2.426     1.217     0.316     0.437     0.071       18.829
     0.31     1.994     2.428     1.217     0.316     0.437     0.071       18.844
     0.32     1.996     2.430     1.218     0.315     0.437     0.071       18.858
     0.33     1.997     2.432     1.218     0.315     0.437     0.071       18.873
     0.34     1.998     2.434     1.218     0.314     0.437     0.071       18.888
     0.35     1.999     2.436     1.219     0.314     0.437     0.071       18.903
     0.36     2.000     2.438     1.219     0.314     0.438     0.071       18.918
     0.37     2.001     2.440     1.219     0.313     0.438     0.071       18.933
     0.38     2.002     2.443     1.220     0.313     0.438     0.071       18.948
     0.39     2.004     2.445     1.220     0.312     0.438     0.071       18.964
     0.40     2.005     2.447     1.221     0.312     0.439     0.071       18.979
     0.41     2.006     2.449     1.221     0.311     0.439     0.071       18.994
     0.42     2.007     2.451     1.221     0.311     0.439     0.071       19.010
     0.43     2.008     2.454     1.222     0.311     0.439     0.071       19.026
     0.44     2.010     2.456     1.222     0.310     0.439     0.071       19.041
     0.45     2.011     2.458     1.223     0.310     0.440     0.071       19.057
     0.46     2.012     2.460     1.223     0.309     0.440     0.071       19.073
     0.47     2.013     2.463     1.223     0.309     0.440     0.071       19.089
     0.48     2.014     2.465     1.224     0.308     0.440     0.071       19.105
     0.49     2.015     2.467     1.224     0.308     0.440     0.071       19.121
     0.50     2.017     2.470     1.225     0.307     0.441     0.071       19.137
     0.51     2.018     2.472     1.225     0.307     0.441     0.071       19.153
     0.52     2.019     2.474     1.225     0.307     0.441     0.072       19.169
     0.53     2.020     2.477     1.226     0.306     0.441     0.072       19.186
     0.54     2.022     2.479     1.226     0.306     0.442     0.072       19.202
     0.55     2.023     2.481     1.227     0.305     0.442     0.072       19.219
     0.56     2.024     2.484     1.227     0.305     0.442     0.072       19.235
     0.57     2.025     2.486     1.228     0.304     0.442     0.072       19.252
     0.58     2.027     2.489     1.228     0.304     0.443     0.072       19.269
     0.59     2.028     2.491     1.229     0.303     0.443     0.072       19.286
     0.60     2.029     2.494     1.229     0.303     0.443     0.072       19.303
     0.61     2.030     2.496     1.229     0.302     0.443     0.072       19.320
     0.62     2.032     2.499     1.230     0.302     0.444     0.072       19.337
     0.63     2.033     2.501     1.230     0.301     0.444     0.072       19.355
     0.64     2.034     2.504     1.231     0.301     0.444     0.072       19.372
     0.65     2.035     2.506     1.231     0.300     0.444     0.072       19.389
     0.66     2.037     2.509     1.232     0.300     0.445     0.072       19.407
     0.67     2.038     2.511     1.232     0.300     0.445     0.072       19.425
     0.68     2.039     2.514     1.233     0.299     0.445     0.072       19.442
     0.69     2.041     2.517     1.233     0.299     0.445     0.072       19.460
     0.70     2.042     2.519     1.234     0.298     0.446     0.072       19.479
     0.71     2.043     2.522     1.234     0.298     0.446     0.072       19.497
     0.72     2.045     2.525     1.235     0.297     0.446     0.072       19.515
     0.73     2.046     2.527     1.235     0.297     0.446     0.072       19.533
     0.74     2.047     2.530     1.236     0.296     0.447     0.072       19.552
     0.75     2.049     2.533     1.236     0.296     0.447     0.072       19.570
     0.76     2.050     2.535     1.237     0.295     0.447     0.072       19.588
     0.77     2.051     2.538     1.237     0.295     0.448     0.072       19.607
     0.78     2.053     2.541     1.238     0.294     0.448     0.072       19.626
     0.79     2.054     2.544     1.238     0.293     0.448     0.072       19.645
     0.80     2.056     2.546     1.239     0.293     0.448     0.072       19.664
     0.81     2.057     2.549     1.239     0.292     0.449     0.072       19.683
     0.82     2.058     2.552     1.240     0.292     0.449     0.072       19.703
     0.83     2.060     2.555     1.240     0.291     0.449     0.072       19.723
     0.84     2.061     2.558     1.241     0.291     0.450     0.073       19.742
     0.85     2.063     2.561     1.241     0.290     0.450     0.073       19.762
     0.86     2.064     2.564     1.242     0.290     0.450     0.073       19.782
     0.87     2.065     2.567     1.243     0.289     0.451     0.073       19.802
     0.88     2.067     2.570     1.243     0.289     0.451     0.073       19.822
     0.89     2.068     2.573     1.244     0.288     0.451     0.073       19.842
     0.90     2.070     2.576     1.244     0.288     0.452     0.073       19.863
     0.91     2.071     2.579     1.245     0.287     0.452     0.073       19.883
     0.92     2.073     2.582     1.246     0.286     0.452     0.073       19.904
     0.93     2.074     2.585     1.246     0.286     0.453     0.073       19.925
     0.94     2.076     2.588     1.247     0.285     0.453     0.073       19.946
     0.95     2.077     2.591     1.247     0.285     0.453     0.073       19.967
     0.96     2.079     2.594     1.248     0.284     0.454     0.073       19.988
     0.97     2.080     2.597     1.249     0.284     0.454     0.073       20.010
     0.98     2.082     2.600     1.249     0.283     0.454     0.073       20.032
     0.99     2.083     2.604     1.250     0.282     0.455     0.073       20.054
     1.00     2.085     2.607     1.250     0.282     0.455     0.073       20.075
     1.01     2.086     2.610     1.251     0.281     0.455     0.073       20.098
     1.02     2.088     2.613     1.252     0.281     0.456     0.073       20.120
     1.03     2.089     2.617     1.252     0.280     0.456     0.073       20.143
     1.04     2.091     2.620     1.253     0.280     0.456     0.073       20.165
     1.05     2.093     2.623     1.254     0.279     0.457     0.073       20.188
     1.06     2.094     2.627     1.254     0.278     0.457     0.073       20.212
     1.07     2.096     2.630     1.255     0.278     0.458     0.073       20.235
     1.08     2.097     2.634     1.256     0.277     0.458     0.073       20.259
     1.09     2.099     2.637     1.256     0.276     0.458     0.073       20.282
     1.10     2.101     2.641     1.257     0.276     0.459     0.073       20.307
     1.11     2.102     2.644     1.258     0.275     0.459     0.074       20.331
     1.12     2.104     2.648     1.259     0.275     0.460     0.074       20.355
     1.13     2.105     2.651     1.259     0.274     0.460     0.074       20.379
     1.14     2.107     2.655     1.260     0.273     0.460     0.074       20.405
     1.15     2.109     2.658     1.261     0.273     0.461     0.074       20.429
     1.16     2.110     2.662     1.261     0.272     0.461     0.074       20.455
     1.17     2.112     2.666     1.262     0.271     0.462     0.074       20.480
     1.18     2.114     2.670     1.263     0.271     0.462     0.074       20.506
     1.19     2.115     2.673     1.264     0.270     0.463     0.074       20.532
     1.20     2.117     2.677     1.264     0.269     0.463     0.074       20.558
     1.21     2.119     2.681     1.265     0.269     0.463     0.074       20.585
     1.22     2.121     2.685     1.266     0.268     0.464     0.074       20.612
     1.23     2.122     2.689     1.267     0.267     0.464     0.074       20.639
     1.24     2.124     2.693     1.268     0.267     0.465     0.074       20.666
     1.25     2.126     2.696     1.268     0.266     0.465     0.074       20.693
     1.26     2.128     2.700     1.269     0.265     0.466     0.074       20.721
     1.27     2.129     2.704     1.270     0.265     0.466     0.074       20.749
     1.28     2.131     2.708     1.271     0.264     0.467     0.074       20.778
     1.29     2.133     2.712     1.272     0.263     0.467     0.074       20.806
     1.30     2.135     2.716     1.273     0.263     0.468     0.074       20.835
     1.31     2.137     2.721     1.273     0.262     0.468     0.074       20.864
     1.32     2.138     2.725     1.274     0.261     0.469     0.074       20.893
     1.33     2.140     2.729     1.275     0.260     0.469     0.074       20.923
     1.34     2.142     2.733     1.276     0.260     0.470     0.075       20.953
     1.35     2.144     2.737     1.277     0.259     0.470     0.075       20.983
     1.36     2.146     2.742     1.278     0.258     0.471     0.075       21.013
     1.37     2.148     2.746     1.279     0.258     0.471     0.075       21.044
     1.38     2.150     2.750     1.279     0.257     0.472     0.075       21.076
     1.39     2.151     2.754     1.280     0.256     0.472     0.075       21.107
     1.40     2.153     2.759     1.281     0.255     0.473     0.075       21.138
     1.41     2.155     2.763     1.282     0.255     0.473     0.075       21.170
     1.42     2.157     2.768     1.283     0.254     0.474     0.075       21.202
     1.43     2.159     2.772     1.284     0.253     0.474     0.075       21.235
     1.44     2.161     2.777     1.285     0.252     0.475     0.075       21.268
     1.45     2.163     2.781     1.286     0.252     0.475     0.075       21.300
     1.46     2.165     2.786     1.287     0.251     0.476     0.075       21.334
     1.47     2.167     2.790     1.288     0.250     0.477     0.075       21.367
     1.48     2.169     2.795     1.289     0.249     0.477     0.075       21.401
     1.49     2.171     2.800     1.290     0.249     0.478     0.075       21.435
     1.50     2.173     2.804     1.291     0.248     0.478     0.075       21.470
     1.51     2.175     2.809     1.292     0.247     0.479     0.075       21.505
     1.52     2.177     2.814     1.293     0.246     0.480     0.075       21.540
     1.53     2.179     2.819     1.294     0.245     0.480     0.075       21.575
     1.54     2.181     2.824     1.295     0.245     0.481     0.076       21.611
     1.55     2.183     2.828     1.296     0.244     0.481     0.076       21.647
     1.56     2.185     2.833     1.297     0.243     0.482     0.076       21.683
     1.57     2.187     2.838     1.298     0.242     0.483     0.076       21.719
     1.58     2.190     2.843     1.299     0.242     0.483     0.076       21.757
     1.59     2.192     2.848     1.300     0.241     0.484     0.076       21.794
     1.60     2.194     2.853     1.301     0.240     0.484     0.076       21.831
     1.61     2.196     2.858     1.302     0.239     0.485     0.076       21.869
     1.62     2.198     2.863     1.303     0.238     0.486     0.076       21.907
     1.63     2.200     2.869     1.304     0.237     0.486     0.076       21.946
     1.64     2.203     2.874     1.305     0.237     0.487     0.076       21.984
     1.65     2.205     2.879     1.306     0.236     0.488     0.076       22.023
     1.66     2.207     2.884     1.307     0.235     0.488     0.076       22.062
     1.67     2.209     2.889     1.308     0.234     0.489     0.076       22.102
     1.68     2.211     2.895     1.309     0.233     0.490     0.076       22.142
     1.69     2.214     2.900     1.310     0.232     0.490     0.076       22.183
     1.70     2.216     2.906     1.311     0.232     0.491     0.076       22.224
     1.71     2.218     2.911     1.312     0.231     0.492     0.076       22.264
     1.72     2.221     2.917     1.313     0.230     0.492     0.076       22.306
     1.73     2.223     2.922     1.315     0.229     0.493     0.076       22.348
     1.74     2.225     2.928     1.316     0.228     0.494     0.077       22.390
     1.75     2.227     2.933     1.317     0.227     0.495     0.077       22.432
     1.76     2.230     2.939     1.318     0.226     0.495     0.077       22.474
     1.77     2.232     2.944     1.319     0.226     0.496     0.077       22.518
     1.78     2.235     2.950     1.320     0.225     0.497     0.077       22.562
     1.79     2.237     2.956     1.321     0.224     0.497     0.077       22.605
     1.80     2.239     2.962     1.323     0.223     0.498     0.077       22.649
     1.81     2.242     2.968     1.324     0.222     0.499     0.077       22.694
     1.82     2.244     2.973     1.325     0.221     0.500     0.077       22.739
     1.83     2.247     2.979     1.326     0.220     0.500     0.077       22.785
     1.84     2.249     2.985     1.327     0.219     0.501     0.077       22.830
     1.85     2.252     2.991     1.329     0.218     0.502     0.077       22.876
     1.86     2.254     2.997     1.330     0.218     0.503     0.077       22.924
     1.87     2.257     3.004     1.331     0.217     0.504     0.077       22.971
     1.88     2.259     3.010     1.332     0.216     0.504     0.077       23.019
     1.89     2.262     3.016     1.333     0.215     0.505     0.077       23.067
     1.90     2.264     3.022     1.335     0.214     0.506     0.077       23.115
     1.91     2.267     3.029     1.336     0.213     0.507     0.077       23.164
     1.92     2.270     3.035     1.337     0.212     0.508     0.077       23.213
     1.93     2.272     3.041     1.338     0.211     0.508     0.077       23.264
     1.94     2.275     3.048     1.340     0.210     0.509     0.078       23.314
     1.95     2.278     3.054     1.341     0.209     0.510     0.078       23.365
     1.96     2.280     3.061     1.342     0.208     0.511     0.078       23.417
     1.97     2.283     3.068     1.344     0.207     0.512     0.078       23.469
     1.98     2.286     3.074     1.345     0.206     0.513     0.078       23.523
     1.99     2.289     3.081     1.346     0.205     0.514     0.078       23.576
     2.00     2.292     3.088     1.348     0.204     0.515     0.078       23.629
     2.01     2.294     3.095     1.349     0.203     0.516     0.078       23.684
     2.02     2.297     3.102     1.350     0.202     0.516     0.078       23.740
     2.03     2.300     3.109     1.352     0.201     0.517     0.078       23.796
     2.04     2.303     3.116     1.353     0.200     0.518     0.078       23.852
     2.05     2.306     3.123     1.355     0.199     0.519     0.078       23.909
     2.06     2.309     3.131     1.356     0.198     0.520     0.078       23.968
     2.07     2.312     3.138     1.357     0.197     0.521     0.078       24.027
     2.08     2.315     3.146     1.359     0.196     0.522     0.078       24.087
     2.09     2.318     3.153     1.360     0.195     0.523     0.078       24.147
     2.10     2.321     3.161     1.362     0.194     0.524     0.078       24.208
     2.11     2.324     3.168     1.363     0.193     0.525     0.078       24.271
     2.12     2.327     3.176     1.365     0.192     0.526     0.078       24.334
     2.13     2.330     3.184     1.366     0.191     0.528     0.078       24.398
     2.14     2.334     3.192     1.368     0.190     0.529     0.079       24.463
     2.15     2.337     3.200     1.369     0.189     0.530     0.079       24.529
     2.16     2.340     3.208     1.371     0.188     0.531     0.079       24.596
     2.17     2.343     3.216     1.373     0.187     0.532     0.079       24.664
     2.18     2.347     3.225     1.374     0.186     0.533     0.079       24.735
     2.19     2.350     3.233     1.376     0.184     0.534     0.079       24.805
     2.20     2.354     3.242     1.378     0.183     0.536     0.079       24.876
     2.21     2.357     3.251     1.379     0.182     0.537     0.079       24.949
     2.22     2.360     3.259     1.381     0.181     0.538     0.079       25.024
     2.23     2.364     3.268     1.383     0.180     0.539     0.079       25.101
     2.24     2.368     3.278     1.384     0.179     0.541     0.079       25.177
     2.25     2.371     3.287     1.386     0.177     0.542     0.079       25.256
     2.26     2.375     3.296     1.388     0.176     0.543     0.079       25.337
     2.27     2.378     3.306     1.390     0.175     0.545     0.079       25.419
     2.28     2.382     3.315     1.392     0.174     0.546     0.079       25.503
     2.29     2.386     3.325     1.394     0.173     0.548     0.079       25.589
     2.30     2.390     3.335     1.395     0.171     0.549     0.079       25.677
     2.31     2.394     3.345     1.397     0.170     0.550     0.079       25.767
     2.32     2.398     3.356     1.399     0.169     0.552     0.079       25.859
     2.33     2.402     3.366     1.401     0.168     0.554     0.079       25.954
     2.34     2.406     3.377     1.404     0.166     0.555     0.079       26.052
     2.35     2.410     3.388     1.406     0.165     0.557     0.079       26.151
     2.36     2.415     3.399     1.408     0.164     0.559     0.079       26.253
